nm	Abs
700.00	0.001
699.80	0.000
699.60	0.000
699.40	0.001
699.20	0.000
699.00	0.000
698.80	0.000
698.60	0.000
698.40	0.001
698.20	0.000
698.00	0.000
697.80	0.001
697.60	0.000
697.40	0.000
697.20	0.001
697.00	0.000
696.80	0.001
696.60	0.000
696.40	0.001
696.20	0.000
696.00	0.000
695.80	0.000
695.60	0.000
695.40	0.001
695.20	0.000
695.00	0.000
694.80	0.000
694.60	0.001
694.40	0.001
694.20	0.000
694.00	0.000
693.80	0.000
693.60	0.001
693.40	0.000
693.20	0.000
693.00	0.001
692.80	0.000
692.60	0.000
692.40	0.000
692.20	0.001
692.00	0.000
691.80	0.000
691.60	0.001
691.40	0.000
691.20	0.000
691.00	-0.001
690.80	0.001
690.60	0.000
690.40	-0.001
690.20	0.001
690.00	0.001
689.80	-0.001
689.60	0.001
689.40	0.000
689.20	0.000
689.00	0.001
688.80	0.000
688.60	0.001
688.40	0.000
688.20	-0.001
688.00	0.001
687.80	0.001
687.60	0.000
687.40	0.001
687.20	0.000
687.00	0.000
686.80	0.000
686.60	0.000
686.40	0.000
686.20	0.000
686.00	0.000
685.80	0.000
685.60	0.000
685.40	0.001
685.20	0.000
685.00	0.000
684.80	0.000
684.60	0.001
684.40	0.000
684.20	0.000
684.00	0.000
683.80	0.001
683.60	0.001
683.40	-0.001
683.20	0.002
683.00	0.000
682.80	0.000
682.60	0.001
682.40	-0.001
682.20	0.001
682.00	0.000
681.80	0.000
681.60	0.001
681.40	0.000
681.20	0.000
681.00	0.000
680.80	0.000
680.60	0.000
680.40	0.000
680.20	0.000
680.00	0.000
679.80	0.000
679.60	0.000
679.40	0.000
679.20	0.000
679.00	0.000
678.80	0.000
678.60	0.001
678.40	0.000
678.20	0.000
678.00	0.000
677.80	0.000
677.60	0.000
677.40	0.001
677.20	-0.001
677.00	0.000
676.80	0.001
676.60	-0.001
676.40	0.000
676.20	0.000
676.00	0.000
675.80	0.001
675.60	-0.001
675.40	0.001
675.20	0.000
675.00	0.000
674.80	0.001
674.60	-0.001
674.40	0.000
674.20	0.000
674.00	0.000
673.80	0.000
673.60	0.000
673.40	0.000
673.20	0.000
673.00	0.000
672.80	0.000
672.60	0.001
672.40	0.000
672.20	0.000
672.00	0.001
671.80	0.000
671.60	0.000
671.40	-0.001
671.20	0.000
671.00	0.000
670.80	0.000
670.60	0.000
670.40	0.000
670.20	0.001
670.00	0.000
669.80	0.000
669.60	0.000
669.40	0.000
669.20	0.000
669.00	0.000
668.80	0.000
668.60	0.000
668.40	0.001
668.20	0.000
668.00	0.000
667.80	0.001
667.60	0.000
667.40	0.001
667.20	-0.001
667.00	0.000
666.80	0.001
666.60	0.000
666.40	0.000
666.20	0.000
666.00	-0.001
665.80	0.000
665.60	0.000
665.40	0.000
665.20	0.000
665.00	0.000
664.80	0.000
664.60	0.000
664.40	-0.001
664.20	0.001
664.00	0.000
663.80	0.000
663.60	0.000
663.40	0.000
663.20	0.000
663.00	-0.001
662.80	0.000
662.60	0.000
662.40	0.000
662.20	0.001
662.00	-0.001
661.80	0.001
661.60	0.000
661.40	0.000
661.20	0.002
661.00	-0.001
660.80	-0.001
660.60	0.001
660.40	-0.001
660.20	0.000
660.00	0.000
659.80	0.000
659.60	0.001
659.40	0.000
659.20	0.000
659.00	0.000
658.80	0.000
658.60	0.000
658.40	0.001
658.20	0.000
658.00	0.000
657.80	0.000
657.60	0.000
657.40	-0.001
657.20	0.000
657.00	0.001
656.80	0.000
656.60	0.000
656.40	0.000
656.20	0.000
656.00	0.000
655.80	0.000
655.60	-0.001
655.40	0.001
655.20	0.000
655.00	0.001
654.80	0.000
654.60	-0.001
654.40	0.001
654.20	0.000
654.00	-0.001
653.80	0.001
653.60	-0.001
653.40	0.001
653.20	0.000
653.00	-0.001
652.80	0.001
652.60	0.000
652.40	0.000
652.20	0.000
652.00	0.000
651.80	0.000
651.60	0.001
651.40	0.000
651.20	0.000
651.00	0.000
650.80	0.000
650.60	0.000
650.40	0.000
650.20	0.001
650.00	-0.001
649.80	0.000
649.60	0.001
649.40	0.000
649.20	0.001
649.00	0.000
648.80	-0.001
648.60	0.001
648.40	0.000
648.20	0.000
648.00	0.001
647.80	0.000
647.60	0.001
647.40	0.001
647.20	-0.001
647.00	0.000
646.80	0.001
646.60	0.000
646.40	0.000
646.20	0.000
646.00	0.000
645.80	0.001
645.60	-0.001
645.40	0.000
645.20	0.000
645.00	0.000
644.80	0.000
644.60	0.000
644.40	0.000
644.20	0.000
644.00	0.000
643.80	0.000
643.60	0.000
643.40	0.000
643.20	0.000
643.00	0.000
642.80	0.000
642.60	0.000
642.40	0.001
642.20	0.000
642.00	-0.001
641.80	0.002
641.60	-0.001
641.40	0.000
641.20	0.001
641.00	-0.001
640.80	0.001
640.60	0.000
640.40	-0.001
640.20	0.001
640.00	0.000
639.80	-0.001
639.60	0.001
639.40	-0.001
639.20	0.000
639.00	0.001
638.80	-0.001
638.60	0.000
638.40	0.000
638.20	0.000
638.00	0.000
637.80	0.000
637.60	0.000
637.40	0.000
637.20	-0.001
637.00	0.000
636.80	0.000
636.60	0.000
636.40	-0.001
636.20	0.000
636.00	0.000
635.80	-0.001
635.60	0.000
635.40	0.000
635.20	0.000
635.00	0.000
634.80	0.000
634.60	0.000
634.40	0.000
634.20	0.001
634.00	0.000
633.80	0.000
633.60	0.000
633.40	0.001
633.20	-0.001
633.00	0.000
632.80	0.001
632.60	-0.001
632.40	0.001
632.20	0.000
632.00	0.000
631.80	0.001
631.60	-0.002
631.40	0.000
631.20	0.001
631.00	-0.001
630.80	0.000
630.60	0.000
630.40	-0.001
630.20	0.001
630.00	0.000
629.80	-0.001
629.60	0.001
629.40	-0.001
629.20	0.000
629.00	0.000
628.80	0.000
628.60	0.000
628.40	0.000
628.20	-0.001
628.00	0.000
627.80	0.000
627.60	0.000
627.40	0.000
627.20	-0.001
627.00	0.000
626.80	0.000
626.60	-0.001
626.40	0.001
626.20	0.000
626.00	0.000
625.80	0.000
625.60	0.001
625.40	0.001
625.20	-0.001
625.00	0.000
624.80	0.000
624.60	0.000
624.40	0.000
624.20	-0.001
624.00	0.001
623.80	0.000
623.60	0.000
623.40	0.001
623.20	-0.001
623.00	0.000
622.80	0.000
622.60	-0.001
622.40	0.000
622.20	0.000
622.00	0.000
621.80	0.000
621.60	0.000
621.40	0.000
621.20	0.001
621.00	-0.001
620.80	0.000
620.60	0.001
620.40	-0.001
620.20	0.000
620.00	0.000
619.80	0.000
619.60	0.001
619.40	-0.001
619.20	0.000
619.00	0.001
618.80	-0.002
618.60	0.000
618.40	0.001
618.20	-0.002
618.00	0.000
617.80	0.000
617.60	0.000
617.40	0.001
617.20	-0.001
617.00	0.000
616.80	0.000
616.60	-0.001
616.40	0.001
616.20	0.000
616.00	0.000
615.80	0.000
615.60	0.000
615.40	0.000
615.20	0.000
615.00	-0.001
614.80	0.000
614.60	0.000
614.40	0.000
614.20	0.000
614.00	0.000
613.80	0.000
613.60	0.001
613.40	-0.001
613.20	0.001
613.00	0.000
612.80	-0.001
612.60	0.001
612.40	-0.001
612.20	0.000
612.00	0.000
611.80	-0.001
611.60	0.000
611.40	0.000
611.20	0.000
611.00	0.001
610.80	-0.001
610.60	0.000
610.40	0.000
610.20	-0.001
610.00	0.000
609.80	0.000
609.60	0.000
609.40	0.000
609.20	-0.001
609.00	0.000
608.80	0.000
608.60	-0.001
608.40	0.000
608.20	0.000
608.00	0.000
607.80	0.000
607.60	0.000
607.40	0.000
607.20	0.000
607.00	0.000
606.80	0.000
606.60	0.000
606.40	-0.001
606.20	0.000
606.00	0.001
605.80	-0.001
605.60	0.000
605.40	0.000
605.20	0.000
605.00	0.001
604.80	0.000
604.60	0.001
604.40	-0.001
604.20	0.000
604.00	0.000
603.80	0.000
603.60	0.000
603.40	0.000
603.20	0.000
603.00	0.000
602.80	-0.001
602.60	0.000
602.40	0.000
602.20	0.000
602.00	0.000
601.80	0.001
601.60	-0.001
601.40	0.000
601.20	0.000
601.00	0.000
600.80	0.001
600.60	0.000
600.40	0.000
600.20	0.001
600.00	-0.001
599.80	0.000
599.60	0.000
599.40	-0.001
599.20	0.001
599.00	0.000
598.80	-0.001
598.60	0.001
598.40	0.000
598.20	0.000
598.00	0.001
597.80	0.000
597.60	0.000
597.40	0.000
597.20	0.000
597.00	0.001
596.80	0.000
596.60	0.000
596.40	0.000
596.20	0.000
596.00	0.000
595.80	0.000
595.60	0.000
595.40	0.001
595.20	0.000
595.00	-0.001
594.80	0.001
594.60	0.000
594.40	-0.001
594.20	0.000
594.00	-0.001
593.80	0.001
593.60	-0.001
593.40	0.000
593.20	0.002
593.00	-0.001
592.80	0.001
592.60	-0.001
592.40	0.000
592.20	0.001
592.00	-0.001
591.80	0.001
591.60	0.000
591.40	-0.001
591.20	0.000
591.00	0.000
590.80	0.000
590.60	0.001
590.40	0.000
590.20	0.000
590.00	0.001
589.80	0.000
589.60	0.000
589.40	0.000
589.20	0.000
589.00	0.001
588.80	0.000
588.60	0.000
588.40	0.000
588.20	0.000
588.00	-0.001
587.80	0.001
587.60	0.000
587.40	0.000
587.20	0.000
587.00	0.001
586.80	0.000
586.60	0.000
586.40	0.000
586.20	0.000
586.00	0.000
585.80	0.000
585.60	0.000
585.40	0.000
585.20	0.000
585.00	0.000
584.80	0.000
584.60	0.000
584.40	0.000
584.20	-0.001
584.00	0.001
583.80	0.000
583.60	-0.001
583.40	0.001
583.20	0.000
583.00	0.000
582.80	0.000
582.60	-0.002
582.40	0.001
582.20	0.000
582.00	-0.001
581.80	0.001
581.60	0.000
581.40	0.001
581.20	0.000
581.00	-0.001
580.80	0.001
580.60	0.000
580.40	-0.001
580.20	0.001
580.00	0.000
579.80	0.000
579.60	0.001
579.40	0.000
579.20	0.001
579.00	0.000
578.80	-0.001
578.60	0.000
578.40	0.000
578.20	0.000
578.00	0.000
577.80	0.000
577.60	0.001
577.40	0.000
577.20	0.000
577.00	0.000
576.80	0.000
576.60	0.000
576.40	-0.001
576.20	0.001
576.00	0.000
575.80	-0.001
575.60	0.001
575.40	0.000
575.20	0.001
575.00	-0.001
574.80	-0.001
574.60	0.001
574.40	-0.001
574.20	0.001
574.00	0.000
573.80	-0.001
573.60	0.001
573.40	-0.001
573.20	0.000
573.00	0.001
572.80	-0.001
572.60	0.000
572.40	0.000
572.20	0.000
572.00	0.001
571.80	-0.001
571.60	0.000
571.40	0.001
571.20	-0.001
571.00	0.000
570.80	0.001
570.60	0.000
570.40	0.000
570.20	0.000
570.00	0.000
569.80	0.000
569.60	0.000
569.40	0.000
569.20	0.000
569.00	0.000
568.80	0.000
568.60	-0.001
568.40	0.000
568.20	0.000
568.00	0.000
567.80	0.000
567.60	-0.001
567.40	0.001
567.20	0.000
567.00	0.000
566.80	0.000
566.60	0.000
566.40	0.000
566.20	0.000
566.00	0.000
565.80	0.001
565.60	-0.001
565.40	0.000
565.20	0.001
565.00	0.000
564.80	0.000
564.60	0.000
564.40	-0.001
564.20	0.001
564.00	0.000
563.80	-0.001
563.60	0.001
563.40	-0.001
563.20	0.001
563.00	-0.001
562.80	0.000
562.60	0.001
562.40	-0.001
562.20	0.000
562.00	0.000
561.80	0.000
561.60	-0.001
561.40	0.000
561.20	0.001
561.00	-0.001
560.80	0.000
560.60	0.000
560.40	0.000
560.20	0.001
560.00	0.000
559.80	-0.001
559.60	0.000
559.40	-0.001
559.20	0.000
559.00	-0.001
558.80	-0.001
558.60	0.001
558.40	-0.001
558.20	-0.001
558.00	0.001
557.80	-0.001
557.60	0.000
557.40	0.000
557.20	0.000
557.00	0.001
556.80	0.000
556.60	0.000
556.40	0.000
556.20	0.000
556.00	0.000
555.80	-0.001
555.60	0.000
555.40	0.001
555.20	0.000
555.00	0.000
554.80	0.000
554.60	0.000
554.40	0.000
554.20	-0.001
554.00	0.001
553.80	0.000
553.60	0.000
553.40	0.000
553.20	0.000
553.00	0.001
552.80	-0.001
552.60	0.001
552.40	0.000
552.20	-0.001
552.00	0.001
551.80	0.000
551.60	-0.001
551.40	0.001
551.20	-0.001
551.00	0.000
550.80	0.001
550.60	-0.001
550.40	0.001
550.20	0.000
550.00	-0.001
549.80	0.001
549.60	-0.001
549.40	-0.001
549.20	0.001
549.00	0.000
548.80	0.000
548.60	0.001
548.40	-0.001
548.20	0.001
548.00	0.000
547.80	0.000
547.60	0.001
547.40	0.000
547.20	0.000
547.00	0.000
546.80	0.000
546.60	0.000
546.40	0.000
546.20	-0.001
546.00	0.000
545.80	0.000
545.60	0.000
545.40	0.000
545.20	-0.001
545.00	0.001
544.80	0.000
544.60	0.000
544.40	0.000
544.20	0.000
544.00	0.000
543.80	-0.001
543.60	0.001
543.40	0.000
543.20	0.000
543.00	0.000
542.80	0.000
542.60	0.001
542.40	0.000
542.20	-0.001
542.00	0.001
541.80	-0.001
541.60	-0.001
541.40	0.001
541.20	-0.001
541.00	0.000
540.80	0.001
540.60	-0.001
540.40	0.001
540.20	0.001
540.00	-0.001
539.80	0.001
539.60	0.000
539.40	-0.001
539.20	0.001
539.00	-0.001
538.80	0.000
538.60	0.001
538.40	0.000
538.20	0.000
538.00	0.000
537.80	-0.001
537.60	0.001
537.40	0.000
537.20	0.000
537.00	0.001
536.80	0.000
536.60	0.000
536.40	0.000
536.20	0.000
536.00	0.000
535.80	0.000
535.60	-0.001
535.40	0.001
535.20	0.000
535.00	-0.001
534.80	0.001
534.60	-0.001
534.40	0.000
534.20	0.001
534.00	-0.001
533.80	0.001
533.60	-0.001
533.40	-0.001
533.20	0.000
533.00	0.000
532.80	0.001
532.60	0.000
532.40	0.000
532.20	0.000
532.00	0.000
531.80	0.000
531.60	0.000
531.40	0.000
531.20	0.000
531.00	0.000
530.80	-0.001
530.60	0.000
530.40	0.001
530.20	0.000
530.00	-0.001
529.80	0.000
529.60	0.000
529.40	-0.001
529.20	0.000
529.00	0.000
528.80	0.000
528.60	0.000
528.40	-0.001
528.20	0.000
528.00	0.000
527.80	0.000
527.60	0.000
527.40	0.000
527.20	0.000
527.00	-0.001
526.80	0.000
526.60	0.000
526.40	0.000
526.20	-0.001
526.00	-0.001
525.80	0.001
525.60	-0.001
525.40	-0.002
525.20	0.001
525.00	-0.001
524.80	0.001
524.60	-0.001
524.40	-0.001
524.20	0.001
524.00	-0.001
523.80	-0.001
523.60	-0.001
523.40	0.000
523.20	0.001
523.00	-0.001
522.80	-0.001
522.60	0.001
522.40	0.000
522.20	-0.001
522.00	0.000
521.80	0.000
521.60	-0.001
521.40	0.000
521.20	-0.001
521.00	0.000
520.80	0.001
520.60	-0.001
520.40	0.000
520.20	0.000
520.00	-0.001
519.80	0.000
519.60	-0.001
519.40	0.000
519.20	0.000
519.00	-0.001
518.80	0.000
518.60	0.001
518.40	-0.001
518.20	-0.001
518.00	0.000
517.80	-0.001
517.60	0.000
517.40	-0.001
517.20	-0.001
517.00	0.001
516.80	-0.001
516.60	-0.001
516.40	0.000
516.20	0.000
516.00	0.000
515.80	-0.001
515.60	0.000
515.40	0.000
515.20	0.000
515.00	-0.001
514.80	0.000
514.60	0.000
514.40	-0.002
514.20	0.000
514.00	-0.001
513.80	0.000
513.60	0.000
513.40	-0.001
513.20	0.000
513.00	0.000
512.80	0.000
512.60	0.000
512.40	0.000
512.20	0.001
512.00	-0.001
511.80	0.000
511.60	0.000
511.40	0.000
511.20	0.000
511.00	0.000
510.80	0.000
510.60	0.000
510.40	0.000
510.20	0.000
510.00	0.000
509.80	0.000
509.60	0.001
509.40	0.000
509.20	-0.001
509.00	0.000
508.80	0.000
508.60	0.000
508.40	0.000
508.20	-0.001
508.00	0.000
507.80	0.001
507.60	-0.001
507.40	-0.001
507.20	0.000
507.00	0.000
506.80	0.000
506.60	0.000
506.40	0.000
506.20	0.001
506.00	-0.001
505.80	-0.001
505.60	0.001
505.40	0.000
505.20	0.000
505.00	0.000
504.80	-0.001
504.60	0.001
504.40	0.000
504.20	-0.001
504.00	0.001
503.80	-0.001
503.60	0.000
503.40	0.001
503.20	-0.001
503.00	0.001
502.80	0.000
502.60	-0.001
502.40	0.001
502.20	0.000
502.00	0.000
501.80	0.001
501.60	-0.001
501.40	0.000
501.20	0.001
501.00	0.000
500.80	0.000
500.60	0.000
500.40	0.000
500.20	0.001
500.00	0.000
499.80	0.000
499.60	0.000
499.40	0.000
499.20	-0.001
499.00	-0.001
498.80	0.000
498.60	0.000
498.40	-0.001
498.20	0.000
498.00	-0.001
497.80	0.000
497.60	0.000
497.40	-0.001
497.20	0.000
497.00	0.000
496.80	0.000
496.60	0.000
496.40	0.000
496.20	0.000
496.00	0.001
495.80	0.000
495.60	-0.001
495.40	0.001
495.20	0.001
495.00	-0.001
494.80	0.000
494.60	-0.001
494.40	0.002
494.20	0.000
494.00	-0.001
493.80	0.002
493.60	-0.001
493.40	0.000
493.20	0.000
493.00	-0.001
492.80	0.001
492.60	0.000
492.40	0.000
492.20	0.000
492.00	-0.001
491.80	0.000
491.60	0.000
491.40	0.000
491.20	0.000
491.00	0.000
490.80	0.000
490.60	0.000
490.40	0.000
490.20	0.001
490.00	0.000
489.80	0.000
489.60	0.000
489.40	0.000
489.20	0.001
489.00	0.000
488.80	-0.001
488.60	0.001
488.40	0.000
488.20	0.000
488.00	0.000
487.80	-0.001
487.60	0.001
487.40	0.001
487.20	-0.001
487.00	0.001
486.80	0.000
486.60	0.000
486.40	0.000
486.20	-0.001
486.00	0.001
485.80	0.000
485.60	-0.001
485.40	0.000
485.20	0.000
485.00	0.001
484.80	-0.001
484.60	0.000
484.40	0.000
484.20	0.000
484.00	0.001
483.80	-0.002
483.60	0.001
483.40	0.000
483.20	0.000
483.00	0.001
482.80	-0.001
482.60	0.000
482.40	0.001
482.20	-0.001
482.00	0.000
481.80	0.000
481.60	-0.001
481.40	0.001
481.20	0.000
481.00	0.000
480.80	0.001
480.60	0.000
480.40	0.000
480.20	0.000
480.00	0.000
479.80	0.000
479.60	0.000
479.40	0.000
479.20	-0.001
479.00	0.000
478.80	0.000
478.60	-0.001
478.40	0.000
478.20	0.000
478.00	0.000
477.80	0.000
477.60	-0.001
477.40	0.001
477.20	0.000
477.00	-0.001
476.80	0.001
476.60	-0.001
476.40	0.000
476.20	0.001
476.00	-0.001
475.80	0.001
475.60	0.000
475.40	0.000
475.20	0.000
475.00	0.000
474.80	0.001
474.60	0.000
474.40	0.001
474.20	0.000
474.00	0.000
473.80	0.001
473.60	0.000
473.40	0.001
473.20	0.000
473.00	0.000
472.80	0.001
472.60	-0.001
472.40	-0.001
472.20	0.002
472.00	-0.001
471.80	-0.001
471.60	0.001
471.40	-0.001
471.20	0.001
471.00	0.000
470.80	0.000
470.60	0.001
470.40	0.000
470.20	0.000
470.00	0.001
469.80	-0.001
469.60	0.000
469.40	0.000
469.20	0.000
469.00	0.000
468.80	0.000
468.60	0.000
468.40	-0.001
468.20	0.001
468.00	0.000
467.80	0.000
467.60	0.000
467.40	0.000
467.20	0.000
467.00	0.001
466.80	0.000
466.60	0.001
466.40	-0.001
466.20	0.000
466.00	0.001
465.80	-0.001
465.60	0.000
465.40	0.001
465.20	0.000
465.00	0.000
464.80	0.001
464.60	0.000
464.40	0.000
464.20	0.000
464.00	0.000
463.80	0.000
463.60	0.000
463.40	0.000
463.20	0.000
463.00	0.000
462.80	0.001
462.60	0.000
462.40	0.000
462.20	0.000
462.00	0.000
461.80	0.000
461.60	0.000
461.40	0.001
461.20	0.000
461.00	0.000
460.80	0.000
460.60	-0.001
460.40	0.001
460.20	0.000
460.00	-0.001
459.80	0.001
459.60	0.000
459.40	0.000
459.20	0.001
459.00	-0.001
458.80	0.001
458.60	0.001
458.40	-0.001
458.20	0.001
458.00	0.000
457.80	0.000
457.60	0.000
457.40	-0.001
457.20	0.000
457.00	0.000
456.80	-0.001
456.60	0.000
456.40	0.000
456.20	-0.001
456.00	0.001
455.80	-0.001
455.60	0.000
455.40	0.001
455.20	-0.001
455.00	0.000
454.80	0.000
454.60	0.000
454.40	0.000
454.20	-0.001
454.00	0.001
453.80	-0.001
453.60	0.000
453.40	-0.001
453.20	0.001
453.00	0.001
452.80	-0.001
452.60	0.001
452.40	0.000
452.20	-0.001
452.00	0.001
451.80	-0.001
451.60	0.001
451.40	0.000
451.20	-0.001
451.00	0.001
450.80	0.000
450.60	-0.001
450.40	0.001
450.20	0.000
450.00	0.000
449.80	0.001
449.60	-0.001
449.40	0.000
449.20	0.000
449.00	-0.001
448.80	0.001
448.60	0.000
448.40	0.000
448.20	0.001
448.00	-0.001
447.80	0.000
447.60	0.001
447.40	-0.001
447.20	0.000
447.00	0.001
446.80	0.000
446.60	0.000
446.40	-0.001
446.20	0.000
446.00	0.001
445.80	-0.001
445.60	0.000
445.40	0.000
445.20	0.000
445.00	0.000
444.80	0.000
444.60	0.000
444.40	0.000
444.20	0.000
444.00	0.000
443.80	0.000
443.60	0.000
443.40	0.000
443.20	0.000
443.00	0.000
442.80	0.000
442.60	0.000
442.40	-0.001
442.20	0.000
442.00	0.000
441.80	-0.001
441.60	0.001
441.40	0.000
441.20	0.000
441.00	0.000
440.80	0.000
440.60	0.001
440.40	0.000
440.20	-0.001
440.00	0.001
439.80	0.001
439.60	-0.001
439.40	0.002
439.20	0.000
439.00	0.000
438.80	0.000
438.60	-0.001
438.40	0.001
438.20	0.000
438.00	-0.001
437.80	0.001
437.60	-0.001
437.40	0.000
437.20	0.000
437.00	-0.001
436.80	0.001
436.60	-0.001
436.40	0.000
436.20	0.001
436.00	0.000
435.80	0.000
435.60	0.000
435.40	0.000
435.20	0.000
435.00	0.000
434.80	-0.001
434.60	0.001
434.40	0.000
434.20	-0.001
434.00	0.001
433.80	0.000
433.60	0.001
433.40	0.000
433.20	-0.001
433.00	0.002
432.80	-0.001
432.60	0.000
432.40	0.000
432.20	0.000
432.00	0.001
431.80	-0.001
431.60	0.001
431.40	0.001
431.20	-0.001
431.00	0.000
430.80	0.001
430.60	-0.001
430.40	0.000
430.20	0.000
430.00	0.000
429.80	0.000
429.60	0.000
429.40	0.001
429.20	0.001
429.00	0.000
428.80	0.000
428.60	0.000
428.40	0.000
428.20	0.001
428.00	0.001
427.80	0.000
427.60	0.000
427.40	0.000
427.20	0.001
427.00	-0.001
426.80	0.000
426.60	0.001
426.40	-0.001
426.20	0.000
426.00	0.001
425.80	0.000
425.60	0.001
425.40	-0.001
425.20	0.001
425.00	0.001
424.80	-0.001
424.60	0.001
424.40	0.000
424.20	0.000
424.00	0.000
423.80	-0.001
423.60	0.001
423.40	-0.001
423.20	0.000
423.00	0.001
422.80	-0.001
422.60	0.000
422.40	0.001
422.20	0.000
422.00	0.000
421.80	0.000
421.60	0.000
421.40	0.000
421.20	-0.001
421.00	0.001
420.80	-0.001
420.60	0.000
420.40	0.000
420.20	-0.001
420.00	0.001
419.80	0.000
419.60	0.000
419.40	0.002
419.20	-0.001
419.00	0.000
418.80	0.001
418.60	-0.001
418.40	0.000
418.20	0.000
418.00	0.000
417.80	0.000
417.60	0.000
417.40	0.001
417.20	0.000
417.00	-0.001
416.80	0.001
416.60	0.000
416.40	0.000
416.20	0.000
416.00	0.000
415.80	0.000
415.60	-0.001
415.40	0.000
415.20	0.000
415.00	-0.001
414.80	0.000
414.60	0.000
414.40	0.000
414.20	0.000
414.00	0.000
413.80	0.000
413.60	0.000
413.40	0.000
413.20	0.000
413.00	0.000
412.80	0.000
412.60	0.000
412.40	0.000
412.20	0.000
412.00	0.000
411.80	0.000
411.60	0.000
411.40	0.000
411.20	0.000
411.00	0.000
410.80	0.000
410.60	-0.001
410.40	0.001
410.20	0.001
410.00	-0.001
409.80	0.001
409.60	0.000
409.40	0.000
409.20	0.000
409.00	0.000
408.80	0.001
408.60	0.000
408.40	0.000
408.20	0.001
408.00	0.000
407.80	0.000
407.60	0.001
407.40	0.000
407.20	0.000
407.00	-0.001
406.80	0.000
406.60	0.000
406.40	0.000
406.20	0.001
406.00	0.000
405.80	-0.001
405.60	0.001
405.40	0.000
405.20	0.000
405.00	0.000
404.80	0.000
404.60	0.001
404.40	0.000
404.20	0.000
404.00	0.001
403.80	-0.001
403.60	0.001
403.40	0.000
403.20	0.000
403.00	0.001
402.80	-0.002
402.60	0.002
402.40	-0.001
402.20	0.000
402.00	0.001
401.80	-0.002
401.60	0.001
401.40	0.001
401.20	-0.001
401.00	0.001
400.80	0.000
400.60	0.000
400.40	0.001
400.20	-0.001
400.00	0.001
