nm	Abs
700.00	0.002
699.80	0.001
699.60	0.001
699.40	0.002
699.20	0.001
699.00	0.001
698.80	0.001
698.60	0.001
698.40	0.002
698.20	0.001
698.00	0.001
697.80	0.002
697.60	0.001
697.40	0.001
697.20	0.002
697.00	0.001
696.80	0.002
696.60	0.001
696.40	0.001
696.20	0.002
696.00	0.002
695.80	0.001
695.60	0.001
695.40	0.002
695.20	0.001
695.00	0.002
694.80	0.001
694.60	0.002
694.40	0.002
694.20	0.001
694.00	0.002
693.80	0.001
693.60	0.002
693.40	0.001
693.20	0.001
693.00	0.002
692.80	0.001
692.60	0.001
692.40	0.001
692.20	0.002
692.00	0.001
691.80	0.001
691.60	0.002
691.40	0.001
691.20	0.002
691.00	0.001
690.80	0.002
690.60	0.002
690.40	0.001
690.20	0.002
690.00	0.002
689.80	0.001
689.60	0.002
689.40	0.001
689.20	0.001
689.00	0.002
688.80	0.002
688.60	0.002
688.40	0.001
688.20	0.001
688.00	0.002
687.80	0.001
687.60	0.001
687.40	0.002
687.20	0.001
687.00	0.002
686.80	0.001
686.60	0.002
686.40	0.002
686.20	0.001
686.00	0.002
685.80	0.001
685.60	0.001
685.40	0.001
685.20	0.001
685.00	0.002
684.80	0.001
684.60	0.002
684.40	0.002
684.20	0.002
684.00	0.000
683.80	0.002
683.60	0.002
683.40	0.001
683.20	0.003
683.00	0.001
682.80	0.003
682.60	0.001
682.40	0.001
682.20	0.003
682.00	0.000
681.80	0.002
681.60	0.002
681.40	0.000
681.20	0.002
681.00	0.001
680.80	0.002
680.60	0.002
680.40	0.001
680.20	0.003
680.00	0.002
679.80	0.001
679.60	0.003
679.40	0.002
679.20	0.001
679.00	0.003
678.80	0.001
678.60	0.003
678.40	0.002
678.20	0.001
678.00	0.002
677.80	0.002
677.60	0.001
677.40	0.002
677.20	0.001
677.00	0.002
676.80	0.002
676.60	0.002
676.40	0.002
676.20	0.002
676.00	0.002
675.80	0.003
675.60	0.000
675.40	0.003
675.20	0.003
675.00	0.001
674.80	0.003
674.60	0.001
674.40	0.003
674.20	0.001
674.00	0.001
673.80	0.004
673.60	0.000
673.40	0.002
673.20	0.003
673.00	0.001
672.80	0.002
672.60	0.002
672.40	0.002
672.20	0.002
672.00	0.002
671.80	0.003
671.60	0.002
671.40	0.001
671.20	0.003
671.00	0.002
670.80	0.002
670.60	0.003
670.40	0.002
670.20	0.003
670.00	0.002
669.80	0.002
669.60	0.003
669.40	0.002
669.20	0.002
669.00	0.003
668.80	0.002
668.60	0.002
668.40	0.003
668.20	0.002
668.00	0.003
667.80	0.002
667.60	0.003
667.40	0.003
667.20	0.001
667.00	0.004
666.80	0.003
666.60	0.002
666.40	0.004
666.20	0.002
666.00	0.004
665.80	0.002
665.60	0.004
665.40	0.003
665.20	0.002
665.00	0.004
664.80	0.003
664.60	0.003
664.40	0.003
664.20	0.003
664.00	0.004
663.80	0.003
663.60	0.003
663.40	0.004
663.20	0.003
663.00	0.002
662.80	0.004
662.60	0.004
662.40	0.003
662.20	0.004
662.00	0.003
661.80	0.005
661.60	0.003
661.40	0.003
661.20	0.005
661.00	0.002
660.80	0.004
660.60	0.004
660.40	0.004
660.20	0.004
660.00	0.004
659.80	0.004
659.60	0.004
659.40	0.003
659.20	0.005
659.00	0.004
658.80	0.004
658.60	0.005
658.40	0.005
658.20	0.004
658.00	0.004
657.80	0.005
657.60	0.005
657.40	0.004
657.20	0.005
657.00	0.006
656.80	0.004
656.60	0.005
656.40	0.005
656.20	0.006
656.00	0.005
655.80	0.006
655.60	0.006
655.40	0.005
655.20	0.006
655.00	0.006
654.80	0.006
654.60	0.005
654.40	0.006
654.20	0.007
654.00	0.005
653.80	0.007
653.60	0.006
653.40	0.007
653.20	0.006
653.00	0.007
652.80	0.007
652.60	0.006
652.40	0.008
652.20	0.007
652.00	0.007
651.80	0.007
651.60	0.008
651.40	0.008
651.20	0.007
651.00	0.008
650.80	0.008
650.60	0.007
650.40	0.008
650.20	0.008
650.00	0.008
649.80	0.009
649.60	0.009
649.40	0.009
649.20	0.009
649.00	0.009
648.80	0.010
648.60	0.009
648.40	0.009
648.20	0.010
648.00	0.010
647.80	0.010
647.60	0.011
647.40	0.011
647.20	0.010
647.00	0.011
646.80	0.012
646.60	0.011
646.40	0.011
646.20	0.012
646.00	0.012
645.80	0.012
645.60	0.012
645.40	0.013
645.20	0.012
645.00	0.014
644.80	0.013
644.60	0.014
644.40	0.013
644.20	0.014
644.00	0.015
643.80	0.013
643.60	0.015
643.40	0.015
643.20	0.016
643.00	0.015
642.80	0.015
642.60	0.016
642.40	0.016
642.20	0.017
642.00	0.017
641.80	0.017
641.60	0.018
641.40	0.017
641.20	0.018
641.00	0.018
640.80	0.019
640.60	0.019
640.40	0.019
640.20	0.020
640.00	0.021
639.80	0.021
639.60	0.021
639.40	0.021
639.20	0.022
639.00	0.023
638.80	0.022
638.60	0.023
638.40	0.024
638.20	0.024
638.00	0.025
637.80	0.025
637.60	0.025
637.40	0.027
637.20	0.026
637.00	0.027
636.80	0.028
636.60	0.028
636.40	0.029
636.20	0.029
636.00	0.030
635.80	0.031
635.60	0.030
635.40	0.032
635.20	0.033
635.00	0.032
634.80	0.035
634.60	0.034
634.40	0.035
634.20	0.036
634.00	0.035
633.80	0.038
633.60	0.037
633.40	0.039
633.20	0.040
633.00	0.039
632.80	0.042
632.60	0.041
632.40	0.043
632.20	0.043
632.00	0.044
631.80	0.045
631.60	0.046
631.40	0.046
631.20	0.048
631.00	0.048
630.80	0.049
630.60	0.051
630.40	0.051
630.20	0.053
630.00	0.054
629.80	0.054
629.60	0.057
629.40	0.056
629.20	0.058
629.00	0.060
628.80	0.060
628.60	0.062
628.40	0.064
628.20	0.064
628.00	0.066
627.80	0.067
627.60	0.068
627.40	0.070
627.20	0.070
627.00	0.073
626.80	0.074
626.60	0.074
626.40	0.078
626.20	0.078
626.00	0.080
625.80	0.082
625.60	0.083
625.40	0.086
625.20	0.086
625.00	0.089
624.80	0.091
624.60	0.091
624.40	0.094
624.20	0.095
624.00	0.097
623.80	0.099
623.60	0.100
623.40	0.103
623.20	0.104
623.00	0.106
622.80	0.110
622.60	0.110
622.40	0.112
622.20	0.116
622.00	0.117
621.80	0.120
621.60	0.122
621.40	0.124
621.20	0.128
621.00	0.128
620.80	0.132
620.60	0.135
620.40	0.135
620.20	0.140
620.00	0.142
619.80	0.144
619.60	0.148
619.40	0.149
619.20	0.153
619.00	0.157
618.80	0.158
618.60	0.162
618.40	0.165
618.20	0.166
618.00	0.171
617.80	0.174
617.60	0.178
617.40	0.181
617.20	0.183
617.00	0.188
616.80	0.190
616.60	0.194
616.40	0.199
616.20	0.201
616.00	0.205
615.80	0.209
615.60	0.212
615.40	0.216
615.20	0.220
615.00	0.223
614.80	0.228
614.60	0.230
614.40	0.235
614.20	0.240
614.00	0.242
613.80	0.248
613.60	0.251
613.40	0.255
613.20	0.260
613.00	0.263
612.80	0.268
612.60	0.272
612.40	0.276
612.20	0.282
612.00	0.285
611.80	0.290
611.60	0.295
611.40	0.297
611.20	0.304
611.00	0.308
610.80	0.313
610.60	0.319
610.40	0.322
610.20	0.327
610.00	0.333
609.80	0.336
609.60	0.342
609.40	0.348
609.20	0.351
609.00	0.358
608.80	0.362
608.60	0.367
608.40	0.374
608.20	0.377
608.00	0.384
607.80	0.389
607.60	0.392
607.40	0.399
607.20	0.404
607.00	0.409
606.80	0.415
606.60	0.420
606.40	0.425
606.20	0.431
606.00	0.435
605.80	0.442
605.60	0.446
605.40	0.451
605.20	0.458
605.00	0.462
604.80	0.467
604.60	0.473
604.40	0.477
604.20	0.483
604.00	0.488
603.80	0.492
603.60	0.498
603.40	0.502
603.20	0.508
603.00	0.513
602.80	0.516
602.60	0.523
602.40	0.527
602.20	0.531
602.00	0.538
601.80	0.540
601.60	0.546
601.40	0.551
601.20	0.555
601.00	0.561
600.80	0.565
600.60	0.568
600.40	0.574
600.20	0.577
600.00	0.582
599.80	0.586
599.60	0.589
599.40	0.594
599.20	0.599
599.00	0.601
598.80	0.606
598.60	0.610
598.40	0.613
598.20	0.618
598.00	0.621
597.80	0.624
597.60	0.628
597.40	0.630
597.20	0.634
597.00	0.638
596.80	0.640
596.60	0.644
596.40	0.646
596.20	0.648
596.00	0.652
595.80	0.653
595.60	0.656
595.40	0.659
595.20	0.660
595.00	0.663
594.80	0.665
594.60	0.666
594.40	0.669
594.20	0.669
594.00	0.672
593.80	0.673
593.60	0.674
593.40	0.676
593.20	0.677
593.00	0.677
592.80	0.680
592.60	0.679
592.40	0.680
592.20	0.683
592.00	0.681
591.80	0.683
591.60	0.684
591.40	0.682
591.20	0.684
591.00	0.684
590.80	0.684
590.60	0.685
590.40	0.683
590.20	0.683
590.00	0.685
589.80	0.682
589.60	0.683
589.40	0.682
589.20	0.680
589.00	0.681
588.80	0.680
588.60	0.678
588.40	0.679
588.20	0.677
588.00	0.674
587.80	0.676
587.60	0.672
587.40	0.672
587.20	0.672
587.00	0.668
586.80	0.668
586.60	0.666
586.40	0.664
586.20	0.664
586.00	0.660
585.80	0.659
585.60	0.658
585.40	0.655
585.20	0.653
585.00	0.653
584.80	0.649
584.60	0.647
584.40	0.645
584.20	0.642
584.00	0.642
583.80	0.638
583.60	0.636
583.40	0.635
583.20	0.631
583.00	0.630
582.80	0.627
582.60	0.623
582.40	0.624
582.20	0.619
582.00	0.617
581.80	0.615
581.60	0.611
581.40	0.609
581.20	0.608
581.00	0.603
580.80	0.602
580.60	0.599
580.40	0.595
580.20	0.595
580.00	0.591
579.80	0.587
579.60	0.586
579.40	0.582
579.20	0.579
579.00	0.578
578.80	0.573
578.60	0.572
578.40	0.569
578.20	0.564
578.00	0.563
577.80	0.561
577.60	0.557
577.40	0.555
577.20	0.552
577.00	0.548
576.80	0.547
576.60	0.543
576.40	0.541
576.20	0.539
576.00	0.535
575.80	0.533
575.60	0.530
575.40	0.527
575.20	0.526
575.00	0.522
574.80	0.519
574.60	0.518
574.40	0.513
574.20	0.513
574.00	0.510
573.80	0.507
573.60	0.505
573.40	0.502
573.20	0.499
573.00	0.499
572.80	0.494
572.60	0.491
572.40	0.491
572.20	0.487
572.00	0.486
571.80	0.483
571.60	0.479
571.40	0.479
571.20	0.476
571.00	0.472
570.80	0.473
570.60	0.469
570.40	0.466
570.20	0.465
570.00	0.462
569.80	0.460
569.60	0.459
569.40	0.454
569.20	0.454
569.00	0.453
568.80	0.448
568.60	0.447
568.40	0.445
568.20	0.443
568.00	0.442
567.80	0.439
567.60	0.436
567.40	0.436
567.20	0.432
567.00	0.431
566.80	0.430
566.60	0.428
566.40	0.425
566.20	0.424
566.00	0.421
565.80	0.421
565.60	0.418
565.40	0.416
565.20	0.416
565.00	0.413
564.80	0.411
564.60	0.410
564.40	0.407
564.20	0.407
564.00	0.405
563.80	0.402
563.60	0.402
563.40	0.400
563.20	0.399
563.00	0.397
562.80	0.395
562.60	0.394
562.40	0.393
562.20	0.390
562.00	0.389
561.80	0.389
561.60	0.386
561.40	0.385
561.20	0.384
561.00	0.382
560.80	0.381
560.60	0.379
560.40	0.377
560.20	0.377
560.00	0.375
559.80	0.374
559.60	0.372
559.40	0.370
559.20	0.369
559.00	0.368
558.80	0.367
558.60	0.365
558.40	0.363
558.20	0.363
558.00	0.361
557.80	0.360
557.60	0.358
557.40	0.357
557.20	0.356
557.00	0.355
556.80	0.353
556.60	0.353
556.40	0.351
556.20	0.349
556.00	0.348
555.80	0.346
555.60	0.346
555.40	0.345
555.20	0.342
555.00	0.342
554.80	0.341
554.60	0.340
554.40	0.338
554.20	0.336
554.00	0.336
553.80	0.335
553.60	0.333
553.40	0.331
553.20	0.332
553.00	0.331
552.80	0.328
552.60	0.328
552.40	0.326
552.20	0.326
552.00	0.324
551.80	0.321
551.60	0.322
551.40	0.320
551.20	0.318
551.00	0.319
550.80	0.317
550.60	0.315
550.40	0.316
550.20	0.312
550.00	0.311
549.80	0.312
549.60	0.309
549.40	0.308
549.20	0.308
549.00	0.305
548.80	0.305
548.60	0.304
548.40	0.301
548.20	0.301
548.00	0.300
547.80	0.298
547.60	0.298
547.40	0.297
547.20	0.294
547.00	0.294
546.80	0.292
546.60	0.291
546.40	0.291
546.20	0.288
546.00	0.287
545.80	0.287
545.60	0.284
545.40	0.285
545.20	0.283
545.00	0.281
544.80	0.281
544.60	0.278
544.40	0.278
544.20	0.277
544.00	0.275
543.80	0.274
543.60	0.274
543.40	0.271
543.20	0.270
543.00	0.270
542.80	0.268
542.60	0.268
542.40	0.266
542.20	0.263
542.00	0.265
541.80	0.262
541.60	0.260
541.40	0.261
541.20	0.258
541.00	0.258
540.80	0.257
540.60	0.254
540.40	0.255
540.20	0.253
540.00	0.250
539.80	0.251
539.60	0.249
539.40	0.247
539.20	0.247
539.00	0.245
538.80	0.244
538.60	0.245
538.40	0.241
538.20	0.240
538.00	0.240
537.80	0.238
537.60	0.237
537.40	0.236
537.20	0.234
537.00	0.234
536.80	0.233
536.60	0.230
536.40	0.231
536.20	0.230
536.00	0.227
535.80	0.227
535.60	0.225
535.40	0.225
535.20	0.225
535.00	0.221
534.80	0.221
534.60	0.220
534.40	0.218
534.20	0.218
534.00	0.216
533.80	0.216
533.60	0.215
533.40	0.212
533.20	0.212
533.00	0.212
532.80	0.210
532.60	0.209
532.40	0.208
532.20	0.206
532.00	0.207
531.80	0.205
531.60	0.203
531.40	0.203
531.20	0.202
531.00	0.200
530.80	0.200
530.60	0.198
530.40	0.198
530.20	0.197
530.00	0.194
529.80	0.195
529.60	0.193
529.40	0.191
529.20	0.191
529.00	0.190
528.80	0.189
528.60	0.188
528.40	0.187
528.20	0.186
528.00	0.185
527.80	0.184
527.60	0.183
527.40	0.182
527.20	0.181
527.00	0.180
526.80	0.179
526.60	0.178
526.40	0.177
526.20	0.176
526.00	0.175
525.80	0.174
525.60	0.173
525.40	0.172
525.20	0.172
525.00	0.170
524.80	0.170
524.60	0.169
524.40	0.168
524.20	0.167
524.00	0.166
523.80	0.165
523.60	0.164
523.40	0.163
523.20	0.163
523.00	0.162
522.80	0.161
522.60	0.160
522.40	0.159
522.20	0.159
522.00	0.158
521.80	0.157
521.60	0.156
521.40	0.154
521.20	0.154
521.00	0.153
520.80	0.152
520.60	0.152
520.40	0.151
520.20	0.149
520.00	0.149
519.80	0.148
519.60	0.147
519.40	0.147
519.20	0.145
519.00	0.144
518.80	0.145
518.60	0.143
518.40	0.142
518.20	0.142
518.00	0.140
517.80	0.141
517.60	0.139
517.40	0.138
517.20	0.138
517.00	0.137
516.80	0.135
516.60	0.136
516.40	0.134
516.20	0.134
516.00	0.133
515.80	0.132
515.60	0.132
515.40	0.131
515.20	0.129
515.00	0.130
514.80	0.130
514.60	0.128
514.40	0.127
514.20	0.126
514.00	0.127
513.80	0.126
513.60	0.123
513.40	0.125
513.20	0.124
513.00	0.122
512.80	0.122
512.60	0.120
512.40	0.121
512.20	0.121
512.00	0.118
511.80	0.119
511.60	0.119
511.40	0.116
511.20	0.117
511.00	0.116
510.80	0.115
510.60	0.115
510.40	0.113
510.20	0.113
510.00	0.114
509.80	0.111
509.60	0.111
509.40	0.112
509.20	0.109
509.00	0.110
508.80	0.109
508.60	0.108
508.40	0.109
508.20	0.106
508.00	0.106
507.80	0.107
507.60	0.105
507.40	0.103
507.20	0.104
507.00	0.103
506.80	0.103
506.60	0.102
506.40	0.101
506.20	0.102
506.00	0.100
505.80	0.099
505.60	0.100
505.40	0.098
505.20	0.099
505.00	0.097
504.80	0.097
504.60	0.098
504.40	0.095
504.20	0.095
504.00	0.095
503.80	0.094
503.60	0.093
503.40	0.093
503.20	0.092
503.00	0.093
502.80	0.091
502.60	0.090
502.40	0.092
502.20	0.089
502.00	0.090
501.80	0.089
501.60	0.088
501.40	0.089
501.20	0.087
501.00	0.086
500.80	0.088
500.60	0.084
500.40	0.085
500.20	0.086
500.00	0.084
499.80	0.084
499.60	0.084
499.40	0.082
499.20	0.083
499.00	0.081
498.80	0.081
498.60	0.082
498.40	0.079
498.20	0.080
498.00	0.080
497.80	0.078
497.60	0.079
497.40	0.077
497.20	0.077
497.00	0.078
496.80	0.076
496.60	0.076
496.40	0.077
496.20	0.074
496.00	0.075
495.80	0.075
495.60	0.073
495.40	0.074
495.20	0.073
495.00	0.073
494.80	0.073
494.60	0.071
494.40	0.073
494.20	0.070
494.00	0.071
493.80	0.071
493.60	0.068
493.40	0.070
493.20	0.068
493.00	0.068
492.80	0.069
492.60	0.066
492.40	0.068
492.20	0.067
492.00	0.065
491.80	0.066
491.60	0.065
491.40	0.065
491.20	0.066
491.00	0.064
490.80	0.065
490.60	0.064
490.40	0.062
490.20	0.064
490.00	0.062
489.80	0.062
489.60	0.062
489.40	0.061
489.20	0.062
489.00	0.061
488.80	0.059
488.60	0.061
488.40	0.059
488.20	0.059
488.00	0.060
487.80	0.057
487.60	0.058
487.40	0.058
487.20	0.056
487.00	0.058
486.80	0.056
486.60	0.056
486.40	0.055
486.20	0.055
486.00	0.056
485.80	0.054
485.60	0.054
485.40	0.054
485.20	0.053
485.00	0.054
484.80	0.052
484.60	0.053
484.40	0.053
484.20	0.051
484.00	0.052
483.80	0.051
483.60	0.051
483.40	0.051
483.20	0.050
483.00	0.050
482.80	0.050
482.60	0.049
482.40	0.050
482.20	0.048
482.00	0.048
481.80	0.049
481.60	0.046
481.40	0.049
481.20	0.047
481.00	0.047
480.80	0.048
480.60	0.045
480.40	0.047
480.20	0.046
480.00	0.045
479.80	0.046
479.60	0.044
479.40	0.045
479.20	0.044
479.00	0.043
478.80	0.044
478.60	0.043
478.40	0.043
478.20	0.044
478.00	0.041
477.80	0.043
477.60	0.042
477.40	0.041
477.20	0.042
477.00	0.040
476.80	0.042
476.60	0.039
476.40	0.040
476.20	0.041
476.00	0.039
475.80	0.040
475.60	0.039
475.40	0.039
475.20	0.039
475.00	0.039
474.80	0.039
474.60	0.038
474.40	0.038
474.20	0.038
474.00	0.037
473.80	0.037
473.60	0.037
473.40	0.036
473.20	0.037
473.00	0.036
472.80	0.035
472.60	0.036
472.40	0.034
472.20	0.036
472.00	0.035
471.80	0.034
471.60	0.035
471.40	0.033
471.20	0.034
471.00	0.034
470.80	0.033
470.60	0.034
470.40	0.032
470.20	0.033
470.00	0.033
469.80	0.031
469.60	0.033
469.40	0.031
469.20	0.031
469.00	0.033
468.80	0.030
468.60	0.031
468.40	0.031
468.20	0.030
468.00	0.031
467.80	0.030
467.60	0.030
467.40	0.030
467.20	0.029
467.00	0.030
466.80	0.029
466.60	0.029
466.40	0.029
466.20	0.028
466.00	0.029
465.80	0.028
465.60	0.028
465.40	0.028
465.20	0.028
465.00	0.028
464.80	0.028
464.60	0.026
464.40	0.028
464.20	0.027
464.00	0.026
463.80	0.027
463.60	0.026
463.40	0.028
463.20	0.025
463.00	0.026
462.80	0.027
462.60	0.024
462.40	0.026
462.20	0.025
462.00	0.024
461.80	0.026
461.60	0.024
461.40	0.025
461.20	0.025
461.00	0.023
460.80	0.025
460.60	0.023
460.40	0.024
460.20	0.025
460.00	0.023
459.80	0.023
459.60	0.023
459.40	0.022
459.20	0.023
459.00	0.022
458.80	0.022
458.60	0.023
458.40	0.021
458.20	0.023
458.00	0.022
457.80	0.021
457.60	0.022
457.40	0.021
457.20	0.021
457.00	0.021
456.80	0.021
456.60	0.021
456.40	0.020
456.20	0.020
456.00	0.021
455.80	0.019
455.60	0.020
455.40	0.020
455.20	0.019
455.00	0.021
454.80	0.018
454.60	0.020
454.40	0.019
454.20	0.018
454.00	0.021
453.80	0.018
453.60	0.019
453.40	0.019
453.20	0.018
453.00	0.019
452.80	0.018
452.60	0.018
452.40	0.018
452.20	0.017
452.00	0.018
451.80	0.018
451.60	0.017
451.40	0.018
451.20	0.017
451.00	0.017
450.80	0.017
450.60	0.016
450.40	0.017
450.20	0.017
450.00	0.016
449.80	0.017
449.60	0.016
449.40	0.016
449.20	0.017
449.00	0.015
448.80	0.016
448.60	0.016
448.40	0.015
448.20	0.016
448.00	0.015
447.80	0.016
447.60	0.016
447.40	0.014
447.20	0.015
447.00	0.016
446.80	0.014
446.60	0.015
446.40	0.014
446.20	0.015
446.00	0.014
445.80	0.013
445.60	0.015
445.40	0.013
445.20	0.014
445.00	0.014
444.80	0.014
444.60	0.014
444.40	0.013
444.20	0.014
444.00	0.013
443.80	0.013
443.60	0.014
443.40	0.014
443.20	0.013
443.00	0.012
442.80	0.014
442.60	0.013
442.40	0.013
442.20	0.012
442.00	0.013
441.80	0.013
441.60	0.012
441.40	0.014
441.20	0.013
441.00	0.012
440.80	0.012
440.60	0.012
440.40	0.012
440.20	0.011
440.00	0.012
439.80	0.012
439.60	0.011
439.40	0.012
439.20	0.012
439.00	0.012
438.80	0.011
438.60	0.012
438.40	0.012
438.20	0.011
438.00	0.011
437.80	0.011
437.60	0.011
437.40	0.012
437.20	0.011
437.00	0.011
436.80	0.012
436.60	0.010
436.40	0.011
436.20	0.011
436.00	0.010
435.80	0.011
435.60	0.010
435.40	0.011
435.20	0.011
435.00	0.009
434.80	0.011
434.60	0.010
434.40	0.011
434.20	0.011
434.00	0.010
433.80	0.011
433.60	0.011
433.40	0.009
433.20	0.010
433.00	0.011
432.80	0.009
432.60	0.011
432.40	0.009
432.20	0.010
432.00	0.011
431.80	0.009
431.60	0.011
431.40	0.010
431.20	0.008
431.00	0.010
430.80	0.010
430.60	0.010
430.40	0.010
430.20	0.009
430.00	0.010
429.80	0.010
429.60	0.008
429.40	0.010
429.20	0.010
429.00	0.009
428.80	0.010
428.60	0.009
428.40	0.010
428.20	0.010
428.00	0.009
427.80	0.010
427.60	0.009
427.40	0.009
427.20	0.010
427.00	0.009
426.80	0.009
426.60	0.010
426.40	0.009
426.20	0.009
426.00	0.010
425.80	0.010
425.60	0.009
425.40	0.009
425.20	0.010
425.00	0.009
424.80	0.009
424.60	0.009
424.40	0.009
424.20	0.010
424.00	0.009
423.80	0.010
423.60	0.010
423.40	0.009
423.20	0.010
423.00	0.010
422.80	0.010
422.60	0.010
422.40	0.010
422.20	0.010
422.00	0.010
421.80	0.010
421.60	0.010
421.40	0.010
421.20	0.010
421.00	0.012
420.80	0.009
420.60	0.010
420.40	0.011
420.20	0.010
420.00	0.011
419.80	0.011
419.60	0.010
419.40	0.012
419.20	0.011
419.00	0.010
418.80	0.012
418.60	0.011
418.40	0.011
418.20	0.012
418.00	0.011
417.80	0.012
417.60	0.012
417.40	0.012
417.20	0.012
417.00	0.012
416.80	0.012
416.60	0.013
416.40	0.012
416.20	0.013
416.00	0.013
415.80	0.014
415.60	0.013
415.40	0.013
415.20	0.014
415.00	0.013
414.80	0.014
414.60	0.014
414.40	0.013
414.20	0.015
414.00	0.015
413.80	0.014
413.60	0.016
413.40	0.014
413.20	0.016
413.00	0.017
412.80	0.014
412.60	0.017
412.40	0.017
412.20	0.015
412.00	0.017
411.80	0.016
411.60	0.018
411.40	0.018
411.20	0.017
411.00	0.019
410.80	0.018
410.60	0.019
410.40	0.019
410.20	0.019
410.00	0.020
409.80	0.020
409.60	0.020
409.40	0.021
409.20	0.020
409.00	0.022
408.80	0.022
408.60	0.021
408.40	0.022
408.20	0.022
408.00	0.022
407.80	0.023
407.60	0.023
407.40	0.024
407.20	0.025
407.00	0.024
406.80	0.026
406.60	0.025
406.40	0.026
406.20	0.027
406.00	0.026
405.80	0.027
405.60	0.028
405.40	0.028
405.20	0.028
405.00	0.028
404.80	0.029
404.60	0.031
404.40	0.030
404.20	0.029
404.00	0.032
403.80	0.031
403.60	0.031
403.40	0.032
403.20	0.033
403.00	0.033
402.80	0.034
402.60	0.034
402.40	0.035
402.20	0.035
402.00	0.036
401.80	0.035
401.60	0.037
401.40	0.037
401.20	0.037
401.00	0.039
400.80	0.038
400.60	0.040
400.40	0.040
400.20	0.038
400.00	0.041
