nm	Abs
700.00	0.002
699.80	0.001
699.60	0.001
699.40	0.001
699.20	0.001
699.00	0.002
698.80	0.000
698.60	0.001
698.40	0.001
698.20	0.001
698.00	0.002
697.80	0.001
697.60	0.000
697.40	0.001
697.20	0.000
697.00	0.001
696.80	0.001
696.60	0.000
696.40	0.001
696.20	0.000
696.00	0.001
695.80	0.001
695.60	0.000
695.40	0.002
695.20	0.000
695.00	0.001
694.80	0.001
694.60	0.000
694.40	0.001
694.20	0.000
694.00	0.001
693.80	0.001
693.60	0.001
693.40	0.001
693.20	0.001
693.00	0.001
692.80	0.001
692.60	0.001
692.40	0.000
692.20	0.002
692.00	0.000
691.80	0.001
691.60	0.001
691.40	0.001
691.20	0.002
691.00	0.000
690.80	0.001
690.60	0.001
690.40	0.000
690.20	0.001
690.00	0.001
689.80	0.001
689.60	0.001
689.40	0.001
689.20	0.001
689.00	0.000
688.80	0.001
688.60	0.002
688.40	0.001
688.20	0.000
688.00	0.001
687.80	0.001
687.60	0.001
687.40	0.000
687.20	0.001
687.00	0.001
686.80	0.000
686.60	0.001
686.40	0.000
686.20	0.001
686.00	0.001
685.80	0.001
685.60	0.001
685.40	0.001
685.20	0.001
685.00	0.001
684.80	0.001
684.60	0.001
684.40	0.001
684.20	0.001
684.00	0.000
683.80	0.002
683.60	0.001
683.40	0.001
683.20	0.001
683.00	0.000
682.80	0.002
682.60	0.000
682.40	0.001
682.20	0.002
682.00	0.000
681.80	0.002
681.60	0.001
681.40	0.000
681.20	0.001
681.00	0.001
680.80	0.001
680.60	0.000
680.40	0.000
680.20	0.001
680.00	0.001
679.80	0.000
679.60	0.001
679.40	0.000
679.20	0.001
679.00	0.001
678.80	0.001
678.60	0.001
678.40	0.001
678.20	0.001
678.00	0.001
677.80	0.001
677.60	0.001
677.40	0.001
677.20	0.001
677.00	0.001
676.80	0.001
676.60	0.000
676.40	0.001
676.20	0.001
676.00	0.000
675.80	0.002
675.60	0.000
675.40	0.003
675.20	0.000
675.00	0.001
674.80	0.002
674.60	0.000
674.40	0.001
674.20	0.001
674.00	0.001
673.80	0.002
673.60	0.000
673.40	0.002
673.20	0.002
673.00	0.000
672.80	0.002
672.60	0.002
672.40	0.000
672.20	0.001
672.00	0.002
671.80	0.000
671.60	0.002
671.40	-0.001
671.20	0.002
671.00	0.001
670.80	0.000
670.60	0.002
670.40	0.001
670.20	0.001
670.00	0.002
669.80	0.000
669.60	0.001
669.40	0.002
669.20	0.000
669.00	0.001
668.80	0.002
668.60	0.001
668.40	0.002
668.20	0.001
668.00	0.000
667.80	0.002
667.60	0.000
667.40	0.001
667.20	0.001
667.00	0.001
666.80	0.001
666.60	0.001
666.40	0.001
666.20	0.001
666.00	0.001
665.80	0.001
665.60	0.002
665.40	0.001
665.20	0.000
665.00	0.001
664.80	0.002
664.60	0.000
664.40	0.002
664.20	0.001
664.00	0.002
663.80	0.001
663.60	0.000
663.40	0.002
663.20	0.001
663.00	0.000
662.80	0.002
662.60	0.001
662.40	0.000
662.20	0.002
662.00	0.000
661.80	0.001
661.60	0.001
661.40	0.001
661.20	0.002
661.00	0.001
660.80	0.001
660.60	0.002
660.40	0.001
660.20	0.001
660.00	0.002
659.80	0.001
659.60	0.001
659.40	0.001
659.20	0.001
659.00	0.001
658.80	0.002
658.60	0.001
658.40	0.002
658.20	0.001
658.00	0.001
657.80	0.002
657.60	0.002
657.40	0.001
657.20	0.001
657.00	0.003
656.80	0.001
656.60	0.002
656.40	0.002
656.20	0.001
656.00	0.002
655.80	0.002
655.60	0.001
655.40	0.002
655.20	0.001
655.00	0.002
654.80	0.002
654.60	0.001
654.40	0.002
654.20	0.003
654.00	0.001
653.80	0.002
653.60	0.002
653.40	0.002
653.20	0.003
653.00	0.002
652.80	0.002
652.60	0.002
652.40	0.002
652.20	0.002
652.00	0.002
651.80	0.002
651.60	0.002
651.40	0.002
651.20	0.002
651.00	0.002
650.80	0.003
650.60	0.002
650.40	0.002
650.20	0.003
650.00	0.002
649.80	0.002
649.60	0.003
649.40	0.002
649.20	0.002
649.00	0.003
648.80	0.001
648.60	0.003
648.40	0.003
648.20	0.002
648.00	0.003
647.80	0.002
647.60	0.003
647.40	0.004
647.20	0.002
647.00	0.002
646.80	0.004
646.60	0.003
646.40	0.003
646.20	0.002
646.00	0.003
645.80	0.003
645.60	0.003
645.40	0.003
645.20	0.003
645.00	0.004
644.80	0.003
644.60	0.003
644.40	0.004
644.20	0.003
644.00	0.005
643.80	0.003
643.60	0.003
643.40	0.005
643.20	0.004
643.00	0.004
642.80	0.005
642.60	0.003
642.40	0.005
642.20	0.005
642.00	0.003
641.80	0.005
641.60	0.004
641.40	0.004
641.20	0.005
641.00	0.004
640.80	0.005
640.60	0.006
640.40	0.005
640.20	0.005
640.00	0.005
639.80	0.006
639.60	0.006
639.40	0.005
639.20	0.006
639.00	0.007
638.80	0.006
638.60	0.006
638.40	0.006
638.20	0.007
638.00	0.006
637.80	0.005
637.60	0.007
637.40	0.006
637.20	0.007
637.00	0.007
636.80	0.006
636.60	0.008
636.40	0.007
636.20	0.006
636.00	0.007
635.80	0.006
635.60	0.008
635.40	0.007
635.20	0.007
635.00	0.008
634.80	0.009
634.60	0.007
634.40	0.008
634.20	0.009
634.00	0.008
633.80	0.010
633.60	0.008
633.40	0.009
633.20	0.010
633.00	0.008
632.80	0.011
632.60	0.009
632.40	0.010
632.20	0.010
632.00	0.010
631.80	0.011
631.60	0.011
631.40	0.011
631.20	0.011
631.00	0.010
630.80	0.011
630.60	0.012
630.40	0.012
630.20	0.012
630.00	0.012
629.80	0.013
629.60	0.013
629.40	0.012
629.20	0.014
629.00	0.013
628.80	0.014
628.60	0.014
628.40	0.014
628.20	0.015
628.00	0.015
627.80	0.014
627.60	0.016
627.40	0.016
627.20	0.015
627.00	0.017
626.80	0.016
626.60	0.017
626.40	0.018
626.20	0.017
626.00	0.018
625.80	0.019
625.60	0.019
625.40	0.020
625.20	0.019
625.00	0.020
624.80	0.021
624.60	0.020
624.40	0.022
624.20	0.021
624.00	0.022
623.80	0.022
623.60	0.023
623.40	0.024
623.20	0.024
623.00	0.023
622.80	0.025
622.60	0.025
622.40	0.025
622.20	0.027
622.00	0.026
621.80	0.027
621.60	0.028
621.40	0.027
621.20	0.029
621.00	0.029
620.80	0.029
620.60	0.031
620.40	0.031
620.20	0.031
620.00	0.032
619.80	0.033
619.60	0.033
619.40	0.034
619.20	0.034
619.00	0.035
618.80	0.036
618.60	0.037
618.40	0.038
618.20	0.037
618.00	0.038
617.80	0.040
617.60	0.040
617.40	0.041
617.20	0.042
617.00	0.042
616.80	0.042
616.60	0.044
616.40	0.045
616.20	0.045
616.00	0.046
615.80	0.046
615.60	0.049
615.40	0.049
615.20	0.048
615.00	0.051
614.80	0.051
614.60	0.052
614.40	0.053
614.20	0.054
614.00	0.055
613.80	0.055
613.60	0.056
613.40	0.058
613.20	0.059
613.00	0.058
612.80	0.060
612.60	0.062
612.40	0.062
612.20	0.063
612.00	0.063
611.80	0.066
611.60	0.066
611.40	0.065
611.20	0.069
611.00	0.069
610.80	0.070
610.60	0.072
610.40	0.072
610.20	0.073
610.00	0.075
609.80	0.075
609.60	0.077
609.40	0.078
609.20	0.077
609.00	0.080
608.80	0.081
608.60	0.081
608.40	0.084
608.20	0.083
608.00	0.086
607.80	0.087
607.60	0.087
607.40	0.089
607.20	0.090
607.00	0.090
606.80	0.093
606.60	0.093
606.40	0.094
606.20	0.096
606.00	0.097
605.80	0.098
605.60	0.099
605.40	0.099
605.20	0.102
605.00	0.102
604.80	0.103
604.60	0.106
604.40	0.104
604.20	0.108
604.00	0.107
603.80	0.108
603.60	0.111
603.40	0.110
603.20	0.112
603.00	0.113
602.80	0.113
602.60	0.116
602.40	0.116
602.20	0.117
602.00	0.119
601.80	0.118
601.60	0.119
601.40	0.122
601.20	0.121
601.00	0.123
600.80	0.124
600.60	0.124
600.40	0.126
600.20	0.126
600.00	0.127
599.80	0.129
599.60	0.128
599.40	0.129
599.20	0.131
599.00	0.130
598.80	0.132
598.60	0.133
598.40	0.133
598.20	0.135
598.00	0.134
597.80	0.135
597.60	0.137
597.40	0.135
597.20	0.137
597.00	0.138
596.80	0.138
596.60	0.139
596.40	0.138
596.20	0.140
596.00	0.140
595.80	0.140
595.60	0.142
595.40	0.142
595.20	0.141
595.00	0.142
594.80	0.142
594.60	0.143
594.40	0.143
594.20	0.143
594.00	0.144
593.80	0.144
593.60	0.144
593.40	0.144
593.20	0.145
593.00	0.144
592.80	0.145
592.60	0.145
592.40	0.145
592.20	0.145
592.00	0.145
591.80	0.146
591.60	0.145
591.40	0.145
591.20	0.145
591.00	0.145
590.80	0.145
590.60	0.144
590.40	0.145
590.20	0.145
590.00	0.144
589.80	0.144
589.60	0.144
589.40	0.144
589.20	0.144
589.00	0.143
588.80	0.143
588.60	0.143
588.40	0.142
588.20	0.142
588.00	0.141
587.80	0.142
587.60	0.142
587.40	0.140
587.20	0.141
587.00	0.140
586.80	0.139
586.60	0.139
586.40	0.138
586.20	0.139
586.00	0.138
585.80	0.136
585.60	0.138
585.40	0.137
585.20	0.135
585.00	0.136
584.80	0.135
584.60	0.135
584.40	0.134
584.20	0.132
584.00	0.134
583.80	0.132
583.60	0.131
583.40	0.132
583.20	0.130
583.00	0.130
582.80	0.130
582.60	0.128
582.40	0.130
582.20	0.128
582.00	0.127
581.80	0.128
581.60	0.125
581.40	0.126
581.20	0.125
581.00	0.124
580.80	0.124
580.60	0.123
580.40	0.122
580.20	0.123
580.00	0.121
579.80	0.121
579.60	0.120
579.40	0.118
579.20	0.119
579.00	0.118
578.80	0.116
578.60	0.117
578.40	0.116
578.20	0.115
578.00	0.115
577.80	0.114
577.60	0.114
577.40	0.112
577.20	0.112
577.00	0.112
576.80	0.111
576.60	0.110
576.40	0.110
576.20	0.110
576.00	0.109
575.80	0.107
575.60	0.108
575.40	0.107
575.20	0.106
575.00	0.106
574.80	0.105
574.60	0.106
574.40	0.104
574.20	0.104
574.00	0.104
573.80	0.102
573.60	0.103
573.40	0.102
573.20	0.101
573.00	0.101
572.80	0.100
572.60	0.099
572.40	0.099
572.20	0.099
572.00	0.099
571.80	0.098
571.60	0.096
571.40	0.098
571.20	0.096
571.00	0.095
570.80	0.096
570.60	0.094
570.40	0.094
570.20	0.094
570.00	0.093
569.80	0.094
569.60	0.092
569.40	0.091
569.20	0.093
569.00	0.091
568.80	0.090
568.60	0.091
568.40	0.090
568.20	0.090
568.00	0.090
567.80	0.088
567.60	0.089
567.40	0.088
567.20	0.088
567.00	0.088
566.80	0.086
566.60	0.087
566.40	0.086
566.20	0.086
566.00	0.085
565.80	0.086
565.60	0.085
565.40	0.084
565.20	0.085
565.00	0.084
564.80	0.083
564.60	0.084
564.40	0.082
564.20	0.083
564.00	0.082
563.80	0.082
563.60	0.082
563.40	0.080
563.20	0.081
563.00	0.081
562.80	0.079
562.60	0.082
562.40	0.080
562.20	0.078
562.00	0.081
561.80	0.078
561.60	0.079
561.40	0.079
561.20	0.078
561.00	0.079
560.80	0.077
560.60	0.077
560.40	0.078
560.20	0.076
560.00	0.076
559.80	0.077
559.60	0.075
559.40	0.076
559.20	0.076
559.00	0.075
558.80	0.075
558.60	0.075
558.40	0.075
558.20	0.074
558.00	0.075
557.80	0.075
557.60	0.073
557.40	0.074
557.20	0.073
557.00	0.074
556.80	0.073
556.60	0.072
556.40	0.073
556.20	0.072
556.00	0.072
555.80	0.072
555.60	0.071
555.40	0.072
555.20	0.072
555.00	0.070
554.80	0.071
554.60	0.071
554.40	0.069
554.20	0.070
554.00	0.069
553.80	0.070
553.60	0.069
553.40	0.068
553.20	0.070
553.00	0.069
552.80	0.068
552.60	0.069
552.40	0.068
552.20	0.069
552.00	0.067
551.80	0.067
551.60	0.068
551.40	0.067
551.20	0.067
551.00	0.067
550.80	0.067
550.60	0.066
550.40	0.066
550.20	0.066
550.00	0.065
549.80	0.066
549.60	0.065
549.40	0.064
549.20	0.066
549.00	0.065
548.80	0.064
548.60	0.065
548.40	0.063
548.20	0.064
548.00	0.064
547.80	0.063
547.60	0.064
547.40	0.064
547.20	0.062
547.00	0.063
546.80	0.062
546.60	0.063
546.40	0.063
546.20	0.061
546.00	0.062
545.80	0.063
545.60	0.061
545.40	0.062
545.20	0.061
545.00	0.062
544.80	0.061
544.60	0.060
544.40	0.062
544.20	0.060
544.00	0.061
543.80	0.059
543.60	0.060
543.40	0.060
543.20	0.058
543.00	0.060
542.80	0.058
542.60	0.060
542.40	0.059
542.20	0.057
542.00	0.059
541.80	0.058
541.60	0.058
541.40	0.058
541.20	0.057
541.00	0.058
540.80	0.058
540.60	0.056
540.40	0.058
540.20	0.057
540.00	0.056
539.80	0.057
539.60	0.056
539.40	0.056
539.20	0.056
539.00	0.055
538.80	0.056
538.60	0.056
538.40	0.055
538.20	0.056
538.00	0.054
537.80	0.054
537.60	0.056
537.40	0.054
537.20	0.054
537.00	0.055
536.80	0.054
536.60	0.054
536.40	0.054
536.20	0.055
536.00	0.054
535.80	0.053
535.60	0.054
535.40	0.053
535.20	0.054
535.00	0.052
534.80	0.053
534.60	0.053
534.40	0.052
534.20	0.053
534.00	0.052
533.80	0.052
533.60	0.053
533.40	0.052
533.20	0.052
533.00	0.053
532.80	0.052
532.60	0.052
532.40	0.052
532.20	0.051
532.00	0.053
531.80	0.051
531.60	0.051
531.40	0.053
531.20	0.051
531.00	0.051
530.80	0.051
530.60	0.051
530.40	0.052
530.20	0.050
530.00	0.051
529.80	0.051
529.60	0.050
529.40	0.051
529.20	0.051
529.00	0.050
528.80	0.051
528.60	0.050
528.40	0.050
528.20	0.051
528.00	0.050
527.80	0.051
527.60	0.050
527.40	0.051
527.20	0.051
527.00	0.050
526.80	0.050
526.60	0.051
526.40	0.051
526.20	0.050
526.00	0.050
525.80	0.051
525.60	0.050
525.40	0.050
525.20	0.051
525.00	0.050
524.80	0.051
524.60	0.050
524.40	0.051
524.20	0.051
524.00	0.050
523.80	0.050
523.60	0.051
523.40	0.050
523.20	0.051
523.00	0.051
522.80	0.050
522.60	0.052
522.40	0.050
522.20	0.050
522.00	0.052
521.80	0.050
521.60	0.051
521.40	0.051
521.20	0.050
521.00	0.052
520.80	0.052
520.60	0.051
520.40	0.052
520.20	0.051
520.00	0.051
519.80	0.052
519.60	0.051
519.40	0.052
519.20	0.053
519.00	0.051
518.80	0.052
518.60	0.052
518.40	0.051
518.20	0.053
518.00	0.052
517.80	0.052
517.60	0.054
517.40	0.052
517.20	0.053
517.00	0.054
516.80	0.052
516.60	0.053
516.40	0.053
516.20	0.053
516.00	0.055
515.80	0.054
515.60	0.054
515.40	0.055
515.20	0.053
515.00	0.055
514.80	0.055
514.60	0.054
514.40	0.055
514.20	0.055
514.00	0.054
513.80	0.057
513.60	0.055
513.40	0.055
513.20	0.056
513.00	0.055
512.80	0.056
512.60	0.056
512.40	0.056
512.20	0.058
512.00	0.056
511.80	0.056
511.60	0.059
511.40	0.057
511.20	0.058
511.00	0.059
510.80	0.057
510.60	0.059
510.40	0.059
510.20	0.058
510.00	0.059
509.80	0.059
509.60	0.059
509.40	0.060
509.20	0.059
509.00	0.060
508.80	0.061
508.60	0.060
508.40	0.061
508.20	0.061
508.00	0.061
507.80	0.062
507.60	0.062
507.40	0.061
507.20	0.063
507.00	0.063
506.80	0.062
506.60	0.063
506.40	0.063
506.20	0.064
506.00	0.063
505.80	0.064
505.60	0.065
505.40	0.065
505.20	0.065
505.00	0.064
504.80	0.066
504.60	0.066
504.40	0.066
504.20	0.067
504.00	0.066
503.80	0.067
503.60	0.067
503.40	0.067
503.20	0.068
503.00	0.069
502.80	0.068
502.60	0.068
502.40	0.070
502.20	0.069
502.00	0.070
501.80	0.071
501.60	0.069
501.40	0.072
501.20	0.071
501.00	0.071
500.80	0.073
500.60	0.071
500.40	0.073
500.20	0.074
500.00	0.072
499.80	0.073
499.60	0.074
499.40	0.074
499.20	0.075
499.00	0.075
498.80	0.074
498.60	0.076
498.40	0.076
498.20	0.076
498.00	0.077
497.80	0.077
497.60	0.077
497.40	0.078
497.20	0.078
497.00	0.078
496.80	0.079
496.60	0.080
496.40	0.079
496.20	0.080
496.00	0.081
495.80	0.081
495.60	0.082
495.40	0.082
495.20	0.082
495.00	0.083
494.80	0.083
494.60	0.083
494.40	0.085
494.20	0.083
494.00	0.085
493.80	0.086
493.60	0.084
493.40	0.087
493.20	0.086
493.00	0.087
492.80	0.088
492.60	0.087
492.40	0.089
492.20	0.089
492.00	0.088
491.80	0.089
491.60	0.090
491.40	0.090
491.20	0.091
491.00	0.091
490.80	0.091
490.60	0.093
490.40	0.092
490.20	0.093
490.00	0.094
489.80	0.094
489.60	0.094
489.40	0.095
489.20	0.095
489.00	0.095
488.80	0.097
488.60	0.097
488.40	0.096
488.20	0.098
488.00	0.098
487.80	0.098
487.60	0.100
487.40	0.100
487.20	0.100
487.00	0.101
486.80	0.100
486.60	0.101
486.40	0.103
486.20	0.102
486.00	0.103
485.80	0.103
485.60	0.103
485.40	0.106
485.20	0.105
485.00	0.105
484.80	0.106
484.60	0.106
484.40	0.107
484.20	0.108
484.00	0.108
483.80	0.108
483.60	0.110
483.40	0.109
483.20	0.110
483.00	0.111
482.80	0.111
482.60	0.112
482.40	0.112
482.20	0.112
482.00	0.114
481.80	0.114
481.60	0.113
481.40	0.116
481.20	0.115
481.00	0.116
480.80	0.118
480.60	0.116
480.40	0.118
480.20	0.118
480.00	0.118
479.80	0.119
479.60	0.119
479.40	0.120
479.20	0.121
479.00	0.120
478.80	0.122
478.60	0.122
478.40	0.123
478.20	0.123
478.00	0.123
477.80	0.124
477.60	0.125
477.40	0.126
477.20	0.125
477.00	0.126
476.80	0.128
476.60	0.127
476.40	0.128
476.20	0.129
476.00	0.128
475.80	0.130
475.60	0.130
475.40	0.130
475.20	0.131
475.00	0.132
474.80	0.132
474.60	0.133
474.40	0.133
474.20	0.134
474.00	0.135
473.80	0.134
473.60	0.136
473.40	0.137
473.20	0.137
473.00	0.137
472.80	0.138
472.60	0.138
472.40	0.138
472.20	0.140
472.00	0.139
471.80	0.140
471.60	0.142
471.40	0.140
471.20	0.143
471.00	0.142
470.80	0.143
470.60	0.144
470.40	0.143
470.20	0.145
470.00	0.146
469.80	0.145
469.60	0.146
469.40	0.147
469.20	0.146
469.00	0.148
468.80	0.148
468.60	0.148
468.40	0.149
468.20	0.150
468.00	0.150
467.80	0.151
467.60	0.151
467.40	0.152
467.20	0.152
467.00	0.153
466.80	0.153
466.60	0.155
466.40	0.154
466.20	0.154
466.00	0.156
465.80	0.155
465.60	0.156
465.40	0.158
465.20	0.157
465.00	0.158
464.80	0.159
464.60	0.158
464.40	0.160
464.20	0.160
464.00	0.160
463.80	0.161
463.60	0.160
463.40	0.162
463.20	0.162
463.00	0.162
462.80	0.163
462.60	0.163
462.40	0.164
462.20	0.164
462.00	0.165
461.80	0.165
461.60	0.165
461.40	0.167
461.20	0.166
461.00	0.167
460.80	0.168
460.60	0.167
460.40	0.169
460.20	0.169
460.00	0.168
459.80	0.170
459.60	0.169
459.40	0.170
459.20	0.172
459.00	0.170
458.80	0.172
458.60	0.172
458.40	0.171
458.20	0.173
458.00	0.174
457.80	0.173
457.60	0.174
457.40	0.174
457.20	0.175
457.00	0.175
456.80	0.175
456.60	0.176
456.40	0.176
456.20	0.176
456.00	0.177
455.80	0.177
455.60	0.178
455.40	0.178
455.20	0.179
455.00	0.178
454.80	0.179
454.60	0.181
454.40	0.179
454.20	0.180
454.00	0.181
453.80	0.180
453.60	0.182
453.40	0.180
453.20	0.182
453.00	0.184
452.80	0.181
452.60	0.183
452.40	0.183
452.20	0.182
452.00	0.184
451.80	0.184
451.60	0.184
451.40	0.185
451.20	0.185
451.00	0.184
450.80	0.186
450.60	0.185
450.40	0.186
450.20	0.186
450.00	0.186
449.80	0.187
449.60	0.187
449.40	0.187
449.20	0.187
449.00	0.188
448.80	0.188
448.60	0.187
448.40	0.188
448.20	0.189
448.00	0.189
447.80	0.190
447.60	0.189
447.40	0.189
447.20	0.189
447.00	0.190
446.80	0.190
446.60	0.189
446.40	0.190
446.20	0.191
446.00	0.190
445.80	0.190
445.60	0.192
445.40	0.190
445.20	0.191
445.00	0.191
444.80	0.191
444.60	0.193
444.40	0.191
444.20	0.192
444.00	0.193
443.80	0.191
443.60	0.193
443.40	0.193
443.20	0.192
443.00	0.193
442.80	0.193
442.60	0.193
442.40	0.193
442.20	0.193
442.00	0.193
441.80	0.192
441.60	0.193
441.40	0.194
441.20	0.193
441.00	0.193
440.80	0.193
440.60	0.194
440.40	0.193
440.20	0.193
440.00	0.194
439.80	0.193
439.60	0.193
439.40	0.195
439.20	0.193
439.00	0.194
438.80	0.194
438.60	0.193
438.40	0.194
438.20	0.194
438.00	0.193
437.80	0.195
437.60	0.193
437.40	0.193
437.20	0.195
437.00	0.193
436.80	0.194
436.60	0.193
436.40	0.193
436.20	0.194
436.00	0.193
435.80	0.193
435.60	0.193
435.40	0.193
435.20	0.193
435.00	0.193
434.80	0.193
434.60	0.193
434.40	0.193
434.20	0.192
434.00	0.193
433.80	0.193
433.60	0.192
433.40	0.192
433.20	0.192
433.00	0.193
432.80	0.192
432.60	0.192
432.40	0.191
432.20	0.192
432.00	0.191
431.80	0.190
431.60	0.192
431.40	0.191
431.20	0.190
431.00	0.191
430.80	0.190
430.60	0.191
430.40	0.190
430.20	0.189
430.00	0.190
429.80	0.189
429.60	0.189
429.40	0.190
429.20	0.188
429.00	0.188
428.80	0.189
428.60	0.187
428.40	0.188
428.20	0.189
428.00	0.187
427.80	0.187
427.60	0.187
427.40	0.187
427.20	0.188
427.00	0.185
426.80	0.186
426.60	0.187
426.40	0.185
426.20	0.185
426.00	0.185
425.80	0.184
425.60	0.185
425.40	0.183
425.20	0.184
425.00	0.185
424.80	0.183
424.60	0.183
424.40	0.182
424.20	0.183
424.00	0.182
423.80	0.182
423.60	0.181
423.40	0.181
423.20	0.181
423.00	0.181
422.80	0.181
422.60	0.180
422.40	0.180
422.20	0.180
422.00	0.179
421.80	0.179
421.60	0.179
421.40	0.177
421.20	0.178
421.00	0.179
420.80	0.176
420.60	0.177
420.40	0.177
420.20	0.175
420.00	0.177
419.80	0.175
419.60	0.175
419.40	0.176
419.20	0.174
419.00	0.174
418.80	0.174
418.60	0.172
418.40	0.173
418.20	0.173
418.00	0.171
417.80	0.172
417.60	0.171
417.40	0.170
417.20	0.171
417.00	0.170
416.80	0.170
416.60	0.170
416.40	0.168
416.20	0.169
416.00	0.169
415.80	0.167
415.60	0.168
415.40	0.166
415.20	0.167
415.00	0.166
414.80	0.165
414.60	0.166
414.40	0.165
414.20	0.164
414.00	0.164
413.80	0.164
413.60	0.164
413.40	0.163
413.20	0.162
413.00	0.162
412.80	0.162
412.60	0.161
412.40	0.161
412.20	0.160
412.00	0.160
411.80	0.159
411.60	0.160
411.40	0.158
411.20	0.158
411.00	0.159
410.80	0.156
410.60	0.157
410.40	0.157
410.20	0.156
410.00	0.156
409.80	0.155
409.60	0.155
409.40	0.155
409.20	0.153
409.00	0.154
408.80	0.154
408.60	0.152
408.40	0.153
408.20	0.152
408.00	0.151
407.80	0.152
407.60	0.150
407.40	0.150
407.20	0.150
407.00	0.148
406.80	0.149
406.60	0.149
406.40	0.148
406.20	0.148
406.00	0.147
405.80	0.146
405.60	0.147
405.40	0.146
405.20	0.145
405.00	0.146
404.80	0.144
404.60	0.146
404.40	0.144
404.20	0.143
404.00	0.144
403.80	0.142
403.60	0.142
403.40	0.142
403.20	0.142
403.00	0.141
402.80	0.140
402.60	0.141
402.40	0.140
402.20	0.139
402.00	0.138
401.80	0.138
401.60	0.138
401.40	0.137
401.20	0.137
401.00	0.137
400.80	0.136
400.60	0.137
400.40	0.135
400.20	0.134
400.00	0.135
